
Filename:
	C:\Data\Maxim\Lab Works\Al2O3_XRR_1.raw

File Created:
	November 22, 2019 - 07:43 PM

Specimen Id:
	

Specimen Name:
	

Specimen Description:
	

Comment:
Scan Type: 2Theta Scan
Start Angle: 0.2 deg.
Stop Angle: 1.3 deg.
Num Points: 221
Step Size: 0.005 deg.
Scan Rate: 0.060000
Scan Mode: Step
Wavelength: 1.540562
\Kalpha1: 1.540562	\Kalpha2: 1.544390	\Kbeta: 1.392218

Optics:
		Detector:
			 Type: Fixed Slits
		Tube: 
			 Type: Fixed Slits


Datas:
 Pos [deg]       Rate [CPS]      ESD [-]

Range 1 ---> Iteration 1
   0.200      44517.80	   471.793
   0.205      45367.40	   476.274
   0.210      46858.80	   484.039
   0.215      47878.20	   489.276
   0.220      48786.00	   493.893
   0.225      50024.80	   500.124
   0.230      50793.40	   503.951
   0.235      51757.40	   508.711
   0.240      52888.20	   514.238
   0.245      53917.00	   519.216
   0.250      54774.00	   523.326
   0.255      55897.20	   528.664
   0.260      56838.40	   533.097
   0.265      58031.60	   538.663
   0.270      58776.00	   542.107
   0.275      60090.20	   548.134
   0.280      60505.80	   550.026
   0.285      62040.80	   556.960
   0.290      62814.40	   560.421
   0.295      63907.60	   565.277
   0.300      64827.00	   569.329
   0.305      66186.40	   575.267
   0.310      66565.60	   576.912
   0.315      68233.40	   584.095
   0.320      68786.60	   586.458
   0.325      69752.80	   590.562
   0.330      70774.80	   594.873
   0.335      71691.80	   598.714
   0.340      72715.60	   602.974
   0.345      73909.40	   607.904
   0.350      74852.40	   611.770
   0.355      75945.20	   616.219
   0.360      76395.00	   618.041
   0.365      77655.40	   623.119
   0.370      78432.80	   626.230
   0.375      79790.60	   631.627
   0.380      80459.20	   634.268
   0.385      81747.60	   639.326
   0.390      82513.20	   642.313
   0.395      83255.20	   645.195
   0.400      83874.00	   647.588
   0.405      85042.40	   652.083
   0.410      85637.40	   654.360
   0.415      86640.60	   658.182
   0.420      87373.60	   660.960
   0.425      87869.80	   662.834
   0.430      88187.20	   664.030
   0.435      88905.60	   666.729
   0.440      88878.40	   666.627
   0.445      89122.20	   667.541
   0.450      88083.20	   663.638
   0.455      87811.00	   662.612
   0.460      86475.80	   657.555
   0.465      85365.80	   653.322
   0.470      83406.60	   645.781
   0.475      81533.40	   638.488
   0.480      79427.80	   630.190
   0.485      77614.40	   622.954
   0.490      74808.40	   611.590
   0.495      71814.00	   599.224
   0.500      67540.80	   581.123
   0.505      63221.40	   562.234
   0.510      57825.00	   537.703
   0.515      52830.40	   513.957
   0.520      46963.00	   484.577
   0.525      42404.20	   460.457
   0.530      37730.00	   434.339
   0.535      34378.00	   414.596
   0.540      31359.80	   395.979
   0.545      29102.20	   381.459
   0.550      26597.00	   364.671
   0.555      24439.80	   349.570
   0.560      22076.00	   332.235
   0.565      20222.80	   317.984
   0.570      18645.00	   305.328
   0.575      17311.60	   294.207
   0.580      16548.20	   287.647
   0.585      16068.20	   283.445
   0.590      15373.80	   277.253
   0.595      14565.80	   269.868
   0.600      13408.80	   258.929
   0.605      12497.80	   249.978
   0.610      11417.80	   238.933
   0.615      10570.20	   229.893
   0.620       9936.40	   222.895
   0.625       9671.60	   219.905
   0.630       9489.40	   217.823
   0.635       9437.80	   217.230
   0.640       9337.60	   216.074
   0.645       9127.60	   213.631
   0.650       8528.00	   206.495
   0.655       8102.60	   201.278
   0.660       7404.20	   192.408
   0.665       6951.60	   186.435
   0.670       6525.40	   180.629
   0.675       6256.60	   176.870
   0.680       6149.00	   175.343
   0.685       6144.80	   175.283
   0.690       6116.20	   174.874
   0.695       6112.20	   174.817
   0.700       5959.00	   172.612
   0.705       5901.60	   171.779
   0.710       5539.80	   166.430
   0.715       5356.00	   163.646
   0.720       4826.60	   155.348
   0.725       4628.00	   152.118
   0.730       4345.00	   147.394
   0.735       4277.00	   146.236
   0.740       4184.20	   144.641
   0.745       4137.60	   143.833
   0.750       4226.20	   145.365
   0.755       4283.60	   146.349
   0.760       4196.40	   144.852
   0.765       4103.20	   143.234
   0.770       3978.80	   141.046
   0.775       3765.80	   137.219
   0.780       3500.60	   132.299
   0.785       3340.20	   129.232
   0.790       3172.60	   125.948
   0.795       3061.20	   123.717
   0.800       2943.20	   121.310
   0.805       2950.00	   121.450
   0.810       2952.20	   121.495
   0.815       3046.00	   123.410
   0.820       2999.40	   122.462
   0.825       2966.80	   121.795
   0.830       2957.60	   121.606
   0.835       2870.60	   119.804
   0.840       2729.20	   116.816
   0.845       2597.40	   113.961
   0.850       2485.20	   111.472
   0.855       2330.20	   107.940
   0.860       2218.60	   105.323
   0.865       2155.60	   103.817
   0.870       2130.80	   103.218
   0.875       2112.80	   102.781
   0.880       2144.60	   103.552
   0.885       2167.80	   104.111
   0.890       2161.00	   103.947
   0.895       2163.40	   104.005
   0.900       2166.40	   104.077
   0.905       2068.60	   101.701
   0.910       1973.20	    99.328
   0.915       1882.00	    97.005
   0.920       1821.40	    95.431
   0.925       1743.60	    93.370
   0.930       1634.60	    90.405
   0.935       1596.20	    89.336
   0.940       1534.20	    87.584
   0.945       1528.80	    87.430
   0.950       1581.20	    88.916
   0.955       1615.60	    89.878
   0.960       1602.60	    89.515
   0.965       1596.40	    89.342
   0.970       1629.40	    90.261
   0.975       1578.40	    88.837
   0.980       1501.20	    86.637
   0.985       1452.20	    85.212
   0.990       1381.60	    83.114
   0.995       1290.80	    80.337
   1.000       1231.60	    78.473
   1.005       1231.80	    78.479
   1.010       1190.00	    77.136
   1.015       1165.80	    76.348
   1.020       1160.80	    76.184
   1.025       1199.40	    77.440
   1.030       1187.60	    77.058
   1.035       1200.40	    77.473
   1.040       1225.20	    78.269
   1.045       1191.20	    77.175
   1.050       1185.00	    76.974
   1.055       1138.00	    75.432
   1.060       1079.00	    73.451
   1.065       1020.40	    71.428
   1.070        976.80	    69.886
   1.075        931.00	    68.228
   1.080        914.40	    67.617
   1.085        888.80	    66.663
   1.090        879.20	    66.302
   1.095        909.20	    67.424
   1.100        889.00	    66.671
   1.105        905.80	    67.298
   1.110        930.40	    68.206
   1.115        925.20	    68.015
   1.120        922.80	    67.926
   1.125        912.40	    67.543
   1.130        872.80	    66.061
   1.135        873.20	    66.076
   1.140        797.60	    63.151
   1.145        768.60	    61.992
   1.150        745.60	    61.057
   1.155        725.40	    60.225
   1.160        678.80	    58.258
   1.165        690.40	    58.754
   1.170        694.20	    58.915
   1.175        684.00	    58.481
   1.180        701.20	    59.211
   1.185        698.20	    59.085
   1.190        693.80	    58.898
   1.195        720.00	    60.000
   1.200        688.60	    58.677
   1.205        726.60	    60.274
   1.210        678.40	    58.241
   1.215        639.80	    56.560
   1.220        591.60	    54.387
   1.225        583.80	    54.028
   1.230        578.40	    53.777
   1.235        544.00	    52.154
   1.240        535.60	    51.749
   1.245        520.40	    51.010
   1.250        525.80	    51.274
   1.255        541.40	    52.029
   1.260        527.60	    51.361
   1.265        538.60	    51.894
   1.270        577.40	    53.731
   1.275        541.80	    52.048
   1.280        542.20	    52.067
   1.285        527.00	    51.332
   1.290        527.00	    51.332
   1.295        502.00	    50.100
   1.300        485.00	    49.244
