
Filename:
	C:\Data\Maxim\Lab Works\Al2O3_XRR_2.raw

File Created:
	November 22, 2019 - 08:04 PM

Specimen Id:
	

Specimen Name:
	

Specimen Description:
	

Comment:
Scan Type: 2Theta Scan
Start Angle: 1.1 deg.
Stop Angle: 2.2 deg.
Num Points: 221
Step Size: 0.005 deg.
Scan Rate: 0.060000
Scan Mode: Step
Wavelength: 1.540562
\Kalpha1: 1.540562	\Kalpha2: 1.544390	\Kbeta: 1.392218

Optics:
		Detector:
			 Type: Fixed Slits
		Tube: 
			 Type: Fixed Slits


Datas:
 Pos [deg]       Rate [CPS]      ESD [-]

Range 1 ---> Iteration 1
   1.100      18568.20	   304.698
   1.105      18829.40	   306.834
   1.110      19070.40	   308.791
   1.115      19046.20	   308.595
   1.120      19141.80	   309.369
   1.125      18564.20	   304.665
   1.130      18036.00	   300.300
   1.135      17452.40	   295.401
   1.140      16515.80	   287.366
   1.145      15823.80	   281.281
   1.150      15175.00	   275.454
   1.155      14725.60	   271.345
   1.160      14309.00	   267.479
   1.165      14235.20	   266.788
   1.170      14263.20	   267.051
   1.175      14416.00	   268.477
   1.180      14661.60	   270.755
   1.185      14864.00	   272.617
   1.190      14970.40	   273.591
   1.195      14979.00	   273.670
   1.200      14807.60	   272.099
   1.205      14550.20	   269.724
   1.210      14039.20	   264.945
   1.215      13349.40	   258.354
   1.220      12699.80	   251.990
   1.225      12200.60	   246.988
   1.230      11721.80	   242.093
   1.235      11338.80	   238.105
   1.240      11168.80	   236.313
   1.245      11024.00	   234.776
   1.250      11098.80	   235.572
   1.255      11380.60	   238.543
   1.260      11412.60	   238.879
   1.265      11681.80	   241.680
   1.270      11656.80	   241.421
   1.275      11752.60	   242.411
   1.280      11567.40	   240.493
   1.285      11259.80	   237.274
   1.290      10841.20	   232.822
   1.295      10486.40	   228.980
   1.300       9972.80	   223.302
   1.305       9568.60	   218.730
   1.310       9151.80	   213.914
   1.315       8928.40	   211.287
   1.320       8734.00	   208.974
   1.325       8753.80	   209.210
   1.330       8678.60	   208.310
   1.335       8820.40	   210.005
   1.340       9018.40	   212.349
   1.345       9197.60	   214.448
   1.350       9271.80	   215.311
   1.355       9097.20	   213.274
   1.360       9080.40	   213.077
   1.365       8853.00	   210.392
   1.370       8509.00	   206.264
   1.375       8264.40	   203.278
   1.380       7849.40	   198.109
   1.385       7477.60	   193.360
   1.390       7201.00	   189.750
   1.395       7016.60	   187.305
   1.400       6844.00	   184.986
   1.405       6719.20	   183.292
   1.410       6747.60	   183.679
   1.415       6917.60	   185.978
   1.420       6958.00	   186.521
   1.425       7100.80	   188.425
   1.430       7227.60	   190.100
   1.435       7237.00	   190.224
   1.440       7086.80	   188.239
   1.445       6914.20	   185.933
   1.450       6736.40	   183.527
   1.455       6594.80	   181.587
   1.460       6177.00	   175.741
   1.465       6022.60	   173.531
   1.470       5652.60	   168.116
   1.475       5446.80	   165.027
   1.480       5425.80	   164.709
   1.485       5285.80	   162.570
   1.490       5326.00	   163.187
   1.495       5360.60	   163.716
   1.500       5447.60	   165.039
   1.505       5565.20	   166.811
   1.510       5599.80	   167.329
   1.515       5678.60	   168.502
   1.520       5632.00	   167.809
   1.525       5524.00	   166.193
   1.530       5437.20	   164.882
   1.535       5198.00	   161.214
   1.540       5003.20	   158.164
   1.545       4800.60	   154.929
   1.550       4527.40	   150.456
   1.555       4355.60	   147.574
   1.560       4200.60	   144.924
   1.565       4201.00	   144.931
   1.570       4088.80	   142.983
   1.575       4198.00	   144.879
   1.580       4293.80	   146.523
   1.585       4385.60	   148.081
   1.590       4459.20	   149.318
   1.595       4487.00	   149.783
   1.600       4462.60	   149.375
   1.605       4441.60	   149.023
   1.610       4368.00	   147.784
   1.615       4210.20	   145.090
   1.620       4050.00	   142.302
   1.625       3826.60	   138.322
   1.630       3643.20	   134.967
   1.635       3473.00	   131.776
   1.640       3322.20	   128.884
   1.645       3351.60	   129.453
   1.650       3258.00	   127.632
   1.655       3309.20	   128.631
   1.660       3307.60	   128.600
   1.665       3416.40	   130.698
   1.670       3449.60	   131.332
   1.675       3498.80	   132.265
   1.680       3581.60	   133.821
   1.685       3555.40	   133.330
   1.690       3482.00	   131.947
   1.695       3386.00	   130.115
   1.700       3269.00	   127.848
   1.705       3134.40	   125.188
   1.710       2987.60	   122.221
   1.715       2849.40	   119.361
   1.720       2699.80	   116.185
   1.725       2692.80	   116.034
   1.730       2614.80	   114.342
   1.735       2611.60	   114.272
   1.740       2620.80	   114.473
   1.745       2695.40	   116.090
   1.750       2701.80	   116.228
   1.755       2815.40	   118.647
   1.760       2777.20	   117.839
   1.765       2824.20	   118.832
   1.770       2823.20	   118.811
   1.775       2783.00	   117.962
   1.780       2666.60	   115.469
   1.785       2616.00	   114.368
   1.790       2470.80	   111.149
   1.795       2337.40	   108.106
   1.800       2239.60	   105.821
   1.805       2161.60	   103.962
   1.810       2072.80	   101.804
   1.815       2059.60	   101.479
   1.820       2071.20	   101.764
   1.825       2069.60	   101.725
   1.830       2130.80	   103.218
   1.835       2161.40	   103.957
   1.840       2216.20	   105.266
   1.845       2274.60	   106.644
   1.850       2272.80	   106.602
   1.855       2272.40	   106.593
   1.860       2189.40	   104.628
   1.865       2161.60	   103.962
   1.870       2018.20	   100.454
   1.875       1973.00	    99.323
   1.880       1872.20	    96.752
   1.885       1787.80	    94.546
   1.890       1686.80	    91.837
   1.895       1666.00	    91.269
   1.900       1626.20	    90.172
   1.905       1638.60	    90.515
   1.910       1650.20	    90.835
   1.915       1684.60	    91.777
   1.920       1726.40	    92.909
   1.925       1752.60	    93.611
   1.930       1806.80	    95.047
   1.935       1829.60	    95.645
   1.940       1858.00	    96.385
   1.945       1742.60	    93.343
   1.950       1685.40	    91.799
   1.955       1626.00	    90.167
   1.960       1540.20	    87.755
   1.965       1446.20	    85.035
   1.970       1397.20	    83.582
   1.975       1320.60	    81.259
   1.980       1323.80	    81.357
   1.985       1339.80	    81.847
   1.990       1329.00	    81.517
   1.995       1323.80	    81.357
   2.000       1343.40	    81.957
   2.005       1406.20	    83.851
   2.010       1435.80	    84.729
   2.015       1466.60	    85.633
   2.020       1455.40	    85.305
   2.025       1440.00	    84.853
   2.030       1381.00	    83.096
   2.035       1374.80	    82.910
   2.040       1261.80	    79.429
   2.045       1236.20	    78.619
   2.050       1134.40	    75.313
   2.055       1107.80	    74.424
   2.060       1054.20	    72.602
   2.065       1043.60	    72.236
   2.070       1027.40	    71.673
   2.075       1030.00	    71.764
   2.080       1053.40	    72.574
   2.085       1098.60	    74.115
   2.090       1130.80	    75.193
   2.095       1162.40	    76.236
   2.100       1175.80	    76.675
   2.105       1148.00	    75.763
   2.110       1145.80	    75.690
   2.115       1126.80	    75.060
   2.120       1054.60	    72.615
   2.125       1025.20	    71.596
   2.130        936.40	    68.425
   2.135        885.00	    66.521
   2.140        854.40	    65.361
   2.145        825.40	    64.242
   2.150        845.00	    65.000
   2.155        803.80	    63.396
   2.160        839.40	    64.784
   2.165        855.60	    65.406
   2.170        873.60	    66.091
   2.175        919.00	    67.786
   2.180        915.00	    67.639
   2.185        936.00	    68.411
   2.190        941.20	    68.600
   2.195        924.20	    67.978
   2.200        915.20	    67.646
