
Filename:
	C:\Data\Maxim\Lab Works\ZrO2_XRR_2.raw

File Created:
	November 22, 2019 - 02:30 PM

Specimen Id:
	

Specimen Name:
	

Specimen Description:
	

Comment:
Scan Type: 2Theta Scan
Start Angle: 1.25 deg.
Stop Angle: 2.4 deg.
Num Points: 116
Step Size: 0.01 deg.
Scan Rate: 0.200000
Scan Mode: Step
Wavelength: 1.540562
\Kalpha1: 1.540562	\Kalpha2: 1.544390	\Kbeta: 1.392218

Optics:
		Detector:
			 Type: Fixed Slits
		Tube: 
			 Type: Fixed Slits


Datas:
 Pos [deg]       Rate [CPS]      ESD [-]

Range 1 ---> Iteration 1
   1.250      10266.00	   175.494
   1.260      10296.00	   175.750
   1.270      10873.33	   180.610
   1.280      11791.67	   188.082
   1.290      12809.67	   196.033
   1.300      14149.33	   206.029
   1.310      15143.33	   213.143
   1.320      16204.67	   220.486
   1.330      17164.00	   226.918
   1.340      17348.67	   228.136
   1.350      17369.67	   228.274
   1.360      17373.33	   228.298
   1.370      16960.33	   225.568
   1.380      16147.67	   220.098
   1.390      15084.33	   212.728
   1.400      14013.67	   205.039
   1.410      12675.33	   195.003
   1.420      11331.00	   184.372
   1.430      10114.00	   174.190
   1.440       8789.67	   162.385
   1.450       7834.67	   153.310
   1.460       6939.67	   144.288
   1.470       6235.33	   136.770
   1.480       5753.67	   131.381
   1.490       5459.33	   127.977
   1.500       5475.33	   128.164
   1.510       5593.00	   129.534
   1.520       5872.33	   132.729
   1.530       6276.67	   137.222
   1.540       6646.33	   141.206
   1.550       7134.67	   146.301
   1.560       7455.67	   149.556
   1.570       7960.33	   154.535
   1.580       8179.00	   156.643
   1.590       8466.67	   159.374
   1.600       8431.00	   159.038
   1.610       8411.67	   158.855
   1.620       8104.33	   155.926
   1.630       7804.67	   153.016
   1.640       7405.33	   149.050
   1.650       6935.00	   144.239
   1.660       6503.33	   139.678
   1.670       5838.00	   132.340
   1.680       5320.00	   126.333
   1.690       4861.33	   120.764
   1.700       4323.33	   113.886
   1.710       4010.00	   109.681
   1.720       3713.67	   105.551
   1.730       3416.67	   101.242
   1.740       3335.00	   100.025
   1.750       3362.33	   100.434
   1.760       3377.00	   100.653
   1.770       3355.33	   100.329
   1.780       3530.67	   102.917
   1.790       3716.67	   105.594
   1.800       3927.33	   108.545
   1.810       4071.33	   110.517
   1.820       4214.33	   112.441
   1.830       4313.67	   113.759
   1.840       4441.67	   115.434
   1.850       4502.00	   116.215
   1.860       4469.00	   115.789
   1.870       4326.33	   113.925
   1.880       4225.00	   112.583
   1.890       4051.00	   110.241
   1.900       3850.67	   107.480
   1.910       3659.33	   104.776
   1.920       3433.00	   101.484
   1.930       3182.33	    97.709
   1.940       2944.67	    93.989
   1.950       2785.67	    91.417
   1.960       2586.67	    88.091
   1.970       2378.33	    84.469
   1.980       2323.00	    83.481
   1.990       2146.33	    80.243
   2.000       2170.33	    80.691
   2.010       2086.67	    79.120
   2.020       2096.67	    79.310
   2.030       2132.67	    79.987
   2.040       2215.67	    81.529
   2.050       2276.33	    82.638
   2.060       2346.00	    83.893
   2.070       2396.00	    84.782
   2.080       2486.33	    86.366
   2.090       2505.00	    86.689
   2.100       2481.67	    86.284
   2.110       2473.67	    86.145
   2.120       2469.00	    86.064
   2.130       2402.00	    84.888
   2.140       2380.00	    84.499
   2.150       2283.67	    82.771
   2.160       2274.67	    82.608
   2.170       2142.67	    80.175
   2.180       2074.00	    78.880
   2.190       1985.00	    77.169
   2.200       1815.67	    73.804
   2.210       1752.00	    72.498
   2.220       1692.00	    71.246
   2.230       1576.67	    68.775
   2.240       1528.33	    67.713
   2.250       1487.67	    66.806
   2.260       1408.67	    65.008
   2.270       1412.33	    65.092
   2.280       1401.33	    64.838
   2.290       1408.67	    65.008
   2.300       1415.00	    65.154
   2.310       1449.33	    65.939
   2.320       1428.67	    65.468
   2.330       1470.33	    66.415
   2.340       1521.33	    67.557
   2.350       1524.00	    67.617
   2.360       1504.67	    67.186
   2.370       1500.67	    67.097
   2.380       1469.33	    66.393
   2.390       1478.33	    66.596
   2.400       1449.67	    65.947
