
Filename:
	C:\Data\Maxim\Lab Works\Al2O3_XRR_4.raw

File Created:
	November 22, 2019 - 08:44 PM

Specimen Id:
	

Specimen Name:
	

Specimen Description:
	

Comment:
Scan Type: 2Theta Scan
Start Angle: 2.8 deg.
Stop Angle: 4.5 deg.
Num Points: 341
Step Size: 0.005 deg.
Scan Rate: 0.060000
Scan Mode: Step
Wavelength: 1.540562
\Kalpha1: 1.540562	\Kalpha2: 1.544390	\Kbeta: 1.392218

Optics:
		Detector:
			 Type: Fixed Slits
		Tube: 
			 Type: Fixed Slits


Datas:
 Pos [deg]       Rate [CPS]      ESD [-]

Range 1 ---> Iteration 1
   2.800       4591.60	   151.519
   2.805       4360.40	   147.655
   2.810       4025.20	   141.866
   2.815       3880.00	   139.284
   2.820       3564.00	   133.492
   2.825       3406.20	   130.503
   2.830       3235.80	   127.197
   2.835       3214.80	   126.783
   2.840       3328.20	   129.000
   2.845       3368.20	   129.773
   2.850       3547.80	   133.188
   2.855       3761.80	   137.146
   2.860       3985.40	   141.163
   2.865       4078.20	   142.797
   2.870       4205.00	   145.000
   2.875       4213.20	   145.141
   2.880       4131.00	   143.718
   2.885       3997.80	   141.382
   2.890       3751.60	   136.960
   2.895       3560.40	   133.424
   2.900       3264.40	   127.758
   2.905       3064.20	   123.778
   2.910       2887.20	   120.150
   2.915       2815.40	   118.647
   2.920       2726.00	   116.748
   2.925       2711.40	   116.435
   2.930       2831.40	   118.983
   2.935       2966.20	   121.783
   2.940       3134.20	   125.184
   2.945       3280.00	   128.062
   2.950       3417.80	   130.725
   2.955       3519.40	   132.654
   2.960       3503.40	   132.352
   2.965       3516.00	   132.590
   2.970       3466.60	   131.655
   2.975       3259.40	   127.660
   2.980       3065.80	   123.810
   2.985       2922.80	   120.888
   2.990       2663.80	   115.408
   2.995       2517.20	   112.187
   3.000       2377.60	   109.032
   3.005       2334.60	   108.042
   3.010       2331.00	   107.958
   3.015       2389.20	   109.298
   3.020       2489.80	   111.575
   3.025       2655.00	   115.217
   3.030       2775.60	   117.805
   3.035       2892.00	   120.250
   3.040       3055.20	   123.596
   3.045       3050.00	   123.491
   3.050       3009.80	   122.674
   3.055       2929.80	   121.033
   3.060       2803.40	   118.393
   3.065       2701.80	   116.228
   3.070       2532.80	   112.534
   3.075       2349.20	   108.379
   3.080       2199.40	   104.867
   3.085       2122.40	   103.015
   3.090       2057.20	   101.420
   3.095       2024.80	   100.618
   3.100       2089.80	   102.220
   3.105       2145.60	   103.576
   3.110       2202.60	   104.943
   3.115       2324.20	   107.801
   3.120       2467.80	   111.081
   3.125       2542.60	   112.752
   3.130       2583.40	   113.653
   3.135       2606.00	   114.149
   3.140       2555.60	   113.040
   3.145       2468.40	   111.095
   3.150       2367.20	   108.793
   3.155       2231.60	   105.631
   3.160       2087.40	   102.162
   3.165       1961.20	    99.025
   3.170       1840.60	    95.932
   3.175       1792.40	    94.668
   3.180       1783.80	    94.440
   3.185       1780.60	    94.356
   3.190       1817.00	    95.315
   3.195       1865.40	    96.576
   3.200       1945.80	    98.636
   3.205       2088.60	   102.191
   3.210       2170.60	   104.178
   3.215       2214.40	   105.224
   3.220       2262.60	   106.363
   3.225       2216.40	   105.271
   3.230       2179.20	   104.384
   3.235       2127.20	   103.131
   3.240       1986.60	    99.664
   3.245       1913.80	    97.821
   3.250       1779.40	    94.324
   3.255       1653.40	    90.923
   3.260       1575.80	    88.764
   3.265       1559.80	    88.312
   3.270       1497.60	    86.533
   3.275       1597.80	    89.381
   3.280       1611.00	    89.750
   3.285       1700.20	    92.201
   3.290       1799.00	    94.842
   3.295       1867.20	    96.623
   3.300       1894.40	    97.324
   3.305       1953.80	    98.838
   3.310       1959.20	    98.975
   3.315       1937.80	    98.433
   3.320       1851.00	    96.203
   3.325       1786.00	    94.499
   3.330       1696.80	    92.109
   3.335       1542.00	    87.807
   3.340       1479.40	    86.006
   3.345       1417.80	    84.196
   3.350       1369.00	    82.735
   3.355       1372.40	    82.837
   3.360       1385.80	    83.241
   3.365       1436.40	    84.747
   3.370       1464.20	    85.563
   3.375       1532.00	    87.521
   3.380       1602.60	    89.515
   3.385       1626.80	    90.189
   3.390       1715.00	    92.601
   3.395       1698.00	    92.141
   3.400       1684.40	    91.771
   3.405       1665.40	    91.252
   3.410       1584.40	    89.006
   3.415       1512.80	    86.971
   3.420       1448.60	    85.106
   3.425       1361.20	    82.498
   3.430       1247.60	    78.981
   3.435       1215.60	    77.962
   3.440       1224.20	    78.237
   3.445       1213.40	    77.891
   3.450       1237.80	    78.670
   3.455       1284.20	    80.131
   3.460       1323.20	    81.339
   3.465       1385.00	    83.217
   3.470       1434.60	    84.694
   3.475       1498.80	    86.568
   3.480       1478.20	    85.971
   3.485       1486.60	    86.215
   3.490       1464.00	    85.557
   3.495       1427.80	    84.493
   3.500       1365.40	    82.626
   3.505       1285.00	    80.156
   3.510       1215.80	    77.968
   3.515       1157.60	    76.079
   3.520       1107.20	    74.404
   3.525       1082.40	    73.566
   3.530       1083.40	    73.600
   3.535       1102.40	    74.243
   3.540       1133.00	    75.266
   3.545       1176.60	    76.701
   3.550       1238.40	    78.689
   3.555       1297.40	    80.542
   3.560       1309.20	    80.907
   3.565       1322.20	    81.308
   3.570       1345.00	    82.006
   3.575       1330.00	    81.548
   3.580       1263.20	    79.473
   3.585       1248.60	    79.013
   3.590       1164.60	    76.309
   3.595       1110.40	    74.512
   3.600       1067.80	    73.068
   3.605       1006.60	    70.944
   3.610       1035.40	    71.951
   3.615        997.40	    70.619
   3.620        984.00	    70.143
   3.625       1016.20	    71.281
   3.630       1006.40	    70.937
   3.635       1055.40	    72.643
   3.640       1133.00	    75.266
   3.645       1161.80	    76.217
   3.650       1198.00	    77.395
   3.655       1210.20	    77.788
   3.660       1187.40	    77.052
   3.665       1159.00	    76.125
   3.670       1137.40	    75.412
   3.675       1065.40	    72.986
   3.680       1041.60	    72.166
   3.685       1015.40	    71.253
   3.690        953.60	    69.051
   3.695        884.60	    66.506
   3.700        899.60	    67.067
   3.705        913.00	    67.565
   3.710        896.60	    66.955
   3.715        949.20	    68.891
   3.720        997.40	    70.619
   3.725        995.40	    70.548
   3.730       1034.80	    71.931
   3.735       1065.80	    73.000
   3.740       1072.00	    73.212
   3.745       1082.20	    73.559
   3.750       1050.80	    72.484
   3.755       1055.60	    72.650
   3.760        989.40	    70.335
   3.765        964.60	    69.448
   3.770        950.40	    68.935
   3.775        900.80	    67.112
   3.780        896.60	    66.955
   3.785        883.80	    66.476
   3.790        829.80	    64.413
   3.795        842.60	    64.908
   3.800        871.00	    65.992
   3.805        884.80	    66.513
   3.810        940.80	    68.586
   3.815        941.80	    68.622
   3.820        952.00	    68.993
   3.825        963.80	    69.419
   3.830       1000.20	    70.718
   3.835        977.60	    69.914
   3.840        953.40	    69.043
   3.845        933.20	    68.308
   3.850        900.40	    67.097
   3.855        884.20	    66.491
   3.860        832.60	    64.521
   3.865        816.80	    63.906
   3.870        793.40	    62.984
   3.875        780.20	    62.458
   3.880        781.00	    62.490
   3.885        798.00	    63.166
   3.890        806.20	    63.490
   3.895        831.40	    64.475
   3.900        869.20	    65.924
   3.905        884.00	    66.483
   3.910        877.80	    66.250
   3.915        914.80	    67.631
   3.920        924.00	    67.971
   3.925        899.60	    67.067
   3.930        855.80	    65.414
   3.935        865.40	    65.780
   3.940        828.80	    64.374
   3.945        799.00	    63.206
   3.950        764.40	    61.822
   3.955        741.20	    60.877
   3.960        753.80	    61.392
   3.965        738.20	    60.754
   3.970        764.40	    61.822
   3.975        739.20	    60.795
   3.980        745.60	    61.057
   3.985        791.80	    62.921
   3.990        811.20	    63.687
   3.995        818.40	    63.969
   4.000        840.60	    64.831
   4.005        855.20	    65.391
   4.010        828.00	    64.343
   4.015        802.60	    63.348
   4.020        779.40	    62.426
   4.025        769.00	    62.008
   4.030        767.40	    61.944
   4.035        731.80	    60.490
   4.040        711.80	    59.657
   4.045        719.80	    59.992
   4.050        685.00	    58.523
   4.055        673.20	    58.017
   4.060        724.00	    60.166
   4.065        708.20	    59.506
   4.070        735.80	    60.655
   4.075        761.20	    61.693
   4.080        761.40	    61.701
   4.085        776.20	    62.298
   4.090        788.00	    62.769
   4.095        751.80	    61.311
   4.100        768.20	    61.976
   4.105        748.60	    61.180
   4.110        733.00	    60.539
   4.115        699.80	    59.152
   4.120        691.60	    58.805
   4.125        671.60	    57.948
   4.130        670.00	    57.879
   4.135        639.00	    56.524
   4.140        665.20	    57.671
   4.145        638.40	    56.498
   4.150        679.80	    58.301
   4.155        669.60	    57.862
   4.160        687.60	    58.634
   4.165        693.80	    58.898
   4.170        691.40	    58.796
   4.175        714.40	    59.766
   4.180        737.60	    60.729
   4.185        719.80	    59.992
   4.190        689.80	    58.728
   4.195        694.20	    58.915
   4.200        668.80	    57.827
   4.205        670.40	    57.896
   4.210        651.00	    57.053
   4.215        648.80	    56.956
   4.220        637.60	    56.462
   4.225        615.60	    55.480
   4.230        612.60	    55.344
   4.235        593.60	    54.479
   4.240        645.40	    56.807
   4.245        642.00	    56.657
   4.250        667.00	    57.749
   4.255        671.20	    57.931
   4.260        690.40	    58.754
   4.265        684.60	    58.506
   4.270        688.80	    58.686
   4.275        678.80	    58.258
   4.280        678.80	    58.258
   4.285        664.20	    57.628
   4.290        678.20	    58.232
   4.295        640.80	    56.604
   4.300        629.60	    56.107
   4.305        616.60	    55.525
   4.310        601.00	    54.818
   4.315        589.20	    54.277
   4.320        610.20	    55.236
   4.325        603.40	    54.927
   4.330        634.40	    56.321
   4.335        629.80	    56.116
   4.340        621.00	    55.723
   4.345        651.00	    57.053
   4.350        625.20	    55.911
   4.355        637.80	    56.471
   4.360        640.20	    56.577
   4.365        644.80	    56.780
   4.370        641.40	    56.630
   4.375        637.60	    56.462
   4.380        632.00	    56.214
   4.385        623.00	    55.812
   4.390        609.40	    55.200
   4.395        588.20	    54.231
   4.400        584.20	    54.046
   4.405        575.80	    53.656
   4.410        582.20	    53.954
   4.415        581.20	    53.907
   4.420        600.60	    54.800
   4.425        584.40	    54.056
   4.430        608.80	    55.172
   4.435        612.00	    55.317
   4.440        611.80	    55.308
   4.445        613.80	    55.399
   4.450        599.80	    54.763
   4.455        625.00	    55.902
   4.460        616.80	    55.534
   4.465        598.00	    54.681
   4.470        586.60	    54.157
   4.475        590.80	    54.351
   4.480        575.80	    53.656
   4.485        573.00	    53.526
   4.490        567.60	    53.273
   4.495        550.60	    52.469
   4.500        563.80	    53.094
