
Filename:
	C:\Data\Maxim\Lab Works\Al2O3_XRR_3.raw

File Created:
	November 22, 2019 - 08:24 PM

Specimen Id:
	

Specimen Name:
	

Specimen Description:
	

Comment:
Scan Type: 2Theta Scan
Start Angle: 1.9 deg.
Stop Angle: 3 deg.
Num Points: 221
Step Size: 0.005 deg.
Scan Rate: 0.060000
Scan Mode: Step
Wavelength: 1.540562
\Kalpha1: 1.540562	\Kalpha2: 1.544390	\Kbeta: 1.392218

Optics:
		Detector:
			 Type: Fixed Slits
		Tube: 
			 Type: Fixed Slits


Datas:
 Pos [deg]       Rate [CPS]      ESD [-]

Range 1 ---> Iteration 1
   1.900      32622.00	   403.869
   1.905      32883.20	   405.482
   1.910      33695.60	   410.461
   1.915      34620.20	   416.054
   1.920      35445.00	   420.981
   1.925      36344.60	   426.290
   1.930      36471.20	   427.032
   1.935      36332.40	   426.218
   1.940      35733.20	   422.689
   1.945      34815.40	   417.225
   1.950      33325.40	   408.200
   1.955      31887.20	   399.294
   1.960      30133.40	   388.158
   1.965      28804.60	   379.504
   1.970      27440.80	   370.411
   1.975      26446.00	   363.634
   1.980      25969.40	   360.343
   1.985      26088.80	   361.170
   1.990      26521.00	   364.150
   1.995      27244.20	   369.081
   2.000      27935.60	   373.735
   2.005      28766.40	   379.252
   2.010      29148.80	   381.764
   2.015      29477.40	   383.910
   2.020      29337.00	   382.995
   2.025      28862.00	   379.882
   2.030      28011.80	   374.245
   2.035      26760.00	   365.787
   2.040      25390.80	   356.306
   2.045      24252.60	   348.228
   2.050      22903.40	   338.404
   2.055      21838.80	   330.445
   2.060      21047.00	   324.399
   2.065      20951.40	   323.662
   2.070      21048.60	   324.412
   2.075      21344.80	   326.686
   2.080      22075.40	   332.230
   2.085      22744.00	   337.224
   2.090      23239.60	   340.878
   2.095      23773.80	   344.774
   2.100      24030.80	   346.632
   2.105      23971.00	   346.201
   2.110      23542.40	   343.092
   2.115      22697.20	   336.877
   2.120      21735.80	   329.665
   2.125      20722.00	   321.885
   2.130      19482.00	   312.106
   2.135      18576.40	   304.765
   2.140      17615.20	   296.776
   2.145      17091.00	   292.327
   2.150      16662.20	   288.636
   2.155      16777.80	   289.636
   2.160      17201.20	   293.268
   2.165      17782.40	   298.181
   2.170      18302.60	   302.511
   2.175      18874.80	   307.204
   2.180      19222.80	   310.023
   2.185      19454.20	   311.883
   2.190      19466.00	   311.978
   2.195      19229.00	   310.073
   2.200      18554.20	   304.583
   2.205      17642.60	   297.007
   2.210      16705.00	   289.007
   2.215      15810.00	   281.158
   2.220      14775.40	   271.803
   2.225      14163.40	   266.115
   2.230      13597.80	   260.747
   2.235      13391.40	   258.761
   2.240      13577.40	   260.551
   2.245      13750.60	   262.208
   2.250      14119.00	   265.697
   2.255      14702.60	   271.133
   2.260      15253.80	   276.168
   2.265      15666.40	   279.879
   2.270      15835.00	   281.381
   2.275      15833.60	   281.368
   2.280      15392.40	   277.420
   2.285      14959.80	   273.494
   2.290      14119.20	   265.699
   2.295      13511.60	   259.919
   2.300      12601.80	   251.016
   2.305      11888.80	   243.811
   2.310      11191.80	   236.557
   2.315      10952.40	   234.013
   2.320      10698.80	   231.288
   2.325      10834.20	   232.747
   2.330      10983.40	   234.344
   2.335      11439.80	   239.163
   2.340      11892.60	   243.850
   2.345      12299.20	   247.984
   2.350      12704.60	   252.038
   2.355      12937.80	   254.340
   2.360      12820.00	   253.180
   2.365      12716.80	   252.159
   2.370      12148.60	   246.461
   2.375      11642.60	   241.274
   2.380      10896.80	   233.418
   2.385      10217.20	   226.022
   2.390       9616.80	   219.281
   2.395       9108.80	   213.410
   2.400       8666.80	   208.168
   2.405       8567.60	   206.973
   2.410       8612.80	   207.519
   2.415       8845.60	   210.305
   2.420       9199.80	   214.474
   2.425       9646.20	   219.616
   2.430       9982.00	   223.405
   2.435      10328.00	   227.244
   2.440      10498.20	   229.109
   2.445      10559.20	   229.774
   2.450      10373.20	   227.741
   2.455      10017.00	   223.797
   2.460       9557.40	   218.602
   2.465       9007.20	   212.217
   2.470       8286.20	   203.546
   2.475       7819.40	   197.730
   2.480       7341.60	   191.593
   2.485       7084.20	   188.205
   2.490       6883.60	   185.521
   2.495       6927.60	   186.113
   2.500       7110.60	   188.555
   2.505       7493.40	   193.564
   2.510       7789.60	   197.352
   2.515       8089.80	   201.119
   2.520       8393.40	   204.858
   2.525       8596.20	   207.319
   2.530       8648.00	   207.942
   2.535       8523.40	   206.439
   2.540       8266.40	   203.303
   2.545       7913.80	   198.920
   2.550       7343.40	   191.617
   2.555       6858.60	   185.184
   2.560       6430.00	   179.304
   2.565       6065.80	   174.152
   2.570       5787.40	   170.109
   2.575       5555.20	   166.661
   2.580       5629.60	   167.774
   2.585       5751.00	   169.573
   2.590       6030.40	   173.643
   2.595       6360.20	   178.328
   2.600       6622.60	   181.970
   2.605       6878.20	   185.448
   2.610       7109.60	   188.542
   2.615       7181.00	   189.486
   2.620       7048.00	   187.723
   2.625       6891.20	   185.623
   2.630       6518.00	   180.527
   2.635       6209.20	   176.199
   2.640       5730.00	   169.263
   2.645       5384.40	   164.079
   2.650       5063.60	   159.116
   2.655       4866.80	   155.994
   2.660       4715.00	   153.542
   2.665       4667.00	   152.758
   2.670       4747.20	   154.065
   2.675       4921.00	   156.860
   2.680       5240.80	   161.876
   2.685       5480.20	   165.532
   2.690       5641.60	   167.952
   2.695       5951.20	   172.499
   2.700       5896.00	   171.697
   2.705       6012.00	   173.378
   2.710       5775.80	   169.938
   2.715       5626.60	   167.729
   2.720       5242.60	   161.904
   2.725       5028.80	   158.569
   2.730       4556.40	   150.937
   2.735       4353.20	   147.533
   2.740       4081.40	   142.853
   2.745       3967.00	   140.837
   2.750       3886.60	   139.402
   2.755       4023.80	   141.841
   2.760       4126.00	   143.631
   2.765       4321.80	   147.000
   2.770       4467.20	   149.452
   2.775       4719.60	   153.616
   2.780       4902.80	   156.569
   2.785       4986.40	   157.899
   2.790       5027.60	   158.550
   2.795       4953.20	   157.372
   2.800       4751.40	   154.133
   2.805       4504.40	   150.073
   2.810       4223.20	   145.313
   2.815       3895.80	   139.567
   2.820       3696.80	   135.956
   2.825       3455.00	   131.434
   2.830       3297.60	   128.406
   2.835       3246.40	   127.405
   2.840       3287.20	   128.203
   2.845       3398.00	   130.346
   2.850       3568.00	   133.566
   2.855       3738.80	   136.726
   2.860       3935.60	   140.278
   2.865       4152.80	   144.097
   2.870       4189.40	   144.731
   2.875       4204.60	   144.993
   2.880       4131.60	   143.729
   2.885       4016.60	   141.715
   2.890       3852.00	   138.780
   2.895       3582.80	   133.843
   2.900       3373.20	   129.869
   2.905       3143.40	   125.367
   2.910       2926.80	   120.971
   2.915       2804.20	   118.410
   2.920       2752.00	   117.303
   2.925       2727.60	   116.782
   2.930       2760.20	   117.478
   2.935       2965.40	   121.766
   2.940       3138.00	   125.260
   2.945       3255.60	   127.585
   2.950       3436.60	   131.084
   2.955       3485.40	   132.011
   2.960       3508.40	   132.446
   2.965       3530.20	   132.857
   2.970       3408.40	   130.545
   2.975       3248.80	   127.452
   2.980       3129.60	   125.092
   2.985       2915.00	   120.727
   2.990       2712.80	   116.465
   2.995       2522.20	   112.299
   3.000       2427.80	   110.177
