
Filename:
	C:\Data\Maxim\Lab Works\ZrO2_XRR_1.raw

File Created:
	November 22, 2019 - 02:21 PM

Specimen Id:
	

Specimen Name:
	

Specimen Description:
	

Comment:
Scan Type: 2Theta Scan
Start Angle: 0.2 deg.
Stop Angle: 1.5 deg.
Num Points: 131
Step Size: 0.01 deg.
Scan Rate: 0.200000
Scan Mode: Step
Wavelength: 1.540562
\Kalpha1: 1.540562	\Kalpha2: 1.544390	\Kbeta: 1.392218

Optics:
		Detector:
			 Type: Fixed Slits
		Tube: 
			 Type: Fixed Slits


Datas:
 Pos [deg]       Rate [CPS]      ESD [-]

Range 1 ---> Iteration 1
   0.200      65065.33	   441.810
   0.210      67848.33	   451.160
   0.220      71041.00	   461.652
   0.230      74148.67	   471.642
   0.240      76866.67	   480.208
   0.250      79490.67	   488.336
   0.260      82855.33	   498.564
   0.270      86294.00	   508.804
   0.280      88904.33	   516.443
   0.290      91639.00	   524.325
   0.300      94735.33	   533.110
   0.310      97777.33	   541.601
   0.320     101088.00	   550.694
   0.330     103615.33	   557.536
   0.340     106281.67	   564.664
   0.350     109013.67	   571.875
   0.360     111538.67	   578.460
   0.370     114517.33	   586.133
   0.380     117082.67	   592.662
   0.390     119869.33	   599.673
   0.400     122421.00	   606.022
   0.410     124348.33	   610.774
   0.420     127197.33	   617.731
   0.430     129590.33	   623.515
   0.440     131711.00	   628.596
   0.450     134201.67	   634.512
   0.460     136378.00	   639.636
   0.470     138505.33	   644.605
   0.480     140569.00	   649.390
   0.490     142242.67	   653.244
   0.500     144105.00	   657.507
   0.510     146187.00	   662.239
   0.520     147829.33	   665.949
   0.530     149080.00	   668.760
   0.540     150182.00	   671.227
   0.550     151234.67	   673.576
   0.560     152120.67	   675.546
   0.570     152926.67	   677.333
   0.580     152852.33	   677.168
   0.590     152264.33	   675.865
   0.600     151021.33	   673.100
   0.610     148245.67	   666.886
   0.620     144720.33	   658.909
   0.630     139118.00	   646.029
   0.640     131226.33	   627.438
   0.650     120432.33	   601.080
   0.660     107246.00	   567.220
   0.670      93554.00	   529.775
   0.680      79334.00	   487.854
   0.690      68043.00	   451.806
   0.700      56792.00	   412.766
   0.710      48800.33	   382.624
   0.720      42500.00	   357.071
   0.730      38104.67	   338.104
   0.740      33979.00	   319.276
   0.750      30858.00	   304.260
   0.760      26939.00	   284.283
   0.770      23679.33	   266.530
   0.780      19880.67	   244.217
   0.790      16663.00	   223.582
   0.800      13780.33	   203.325
   0.810      11453.33	   185.365
   0.820       9253.33	   166.613
   0.830       7843.33	   153.395
   0.840       6743.67	   142.236
   0.850       6187.33	   136.242
   0.860       5970.33	   133.832
   0.870       6086.33	   135.126
   0.880       6383.67	   138.387
   0.890       6642.33	   141.163
   0.900       6912.00	   144.000
   0.910       6916.33	   144.045
   0.920       6557.33	   140.257
   0.930       6262.67	   137.069
   0.940       5819.67	   132.133
   0.950       5069.33	   123.321
   0.960       4305.00	   113.644
   0.970       3648.00	   104.614
   0.980       2951.00	    94.090
   0.990       2371.00	    84.339
   1.000       1870.33	    74.907
   1.010       1532.67	    67.809
   1.020       1342.33	    63.459
   1.030       1235.67	    60.885
   1.040       1243.33	    61.074
   1.050       1308.67	    62.658
   1.060       1476.67	    66.558
   1.070       1631.33	    69.957
   1.080       1810.33	    73.695
   1.090       1924.33	    75.980
   1.100       2007.00	    77.595
   1.110       2075.67	    78.911
   1.120       2102.67	    79.423
   1.130       1997.33	    77.408
   1.140       1934.67	    76.184
   1.150       1830.33	    74.101
   1.160       1601.33	    69.311
   1.170       1423.67	    65.353
   1.180       1253.00	    61.311
   1.190       1086.67	    57.096
   1.200        899.33	    51.942
   1.210        737.67	    47.043
   1.220        643.00	    43.920
   1.230        518.67	    39.446
   1.240        503.33	    38.859
   1.250        460.33	    37.162
   1.260        485.67	    38.171
   1.270        505.00	    38.923
   1.280        522.00	    39.573
   1.290        591.33	    42.119
   1.300        664.33	    44.643
   1.310        674.33	    44.978
   1.320        758.00	    47.686
   1.330        779.00	    48.343
   1.340        796.33	    48.877
   1.350        822.00	    49.659
   1.360        829.33	    49.880
   1.370        787.67	    48.611
   1.380        731.00	    46.829
   1.390        704.67	    45.978
   1.400        669.00	    44.800
   1.410        587.00	    41.964
   1.420        530.33	    39.887
   1.430        487.33	    38.236
   1.440        407.67	    34.971
   1.450        362.33	    32.970
   1.460        317.00	    30.838
   1.470        294.00	    29.698
   1.480        263.00	    28.089
   1.490        262.33	    28.054
   1.500        264.33	    28.160
