
Filename:
	C:\Data\Maxim\Lab Works\ZrO2_XRR_3.raw

File Created:
	November 22, 2019 - 02:44 PM

Specimen Id:
	

Specimen Name:
	

Specimen Description:
	

Comment:
Scan Type: 2Theta Scan
Start Angle: 2 deg.
Stop Angle: 4 deg.
Num Points: 201
Step Size: 0.01 deg.
Scan Rate: 0.200000
Scan Mode: Step
Wavelength: 1.540562
\Kalpha1: 1.540562	\Kalpha2: 1.544390	\Kbeta: 1.392218

Optics:
		Detector:
			 Type: Fixed Slits
		Tube: 
			 Type: Fixed Slits


Datas:
 Pos [deg]       Rate [CPS]      ESD [-]

Range 1 ---> Iteration 1
   2.000      43494.67	   361.226
   2.010      43275.33	   360.314
   2.020      43549.33	   361.453
   2.030      44239.33	   364.305
   2.040      45031.33	   367.551
   2.050      46367.33	   372.964
   2.060      47748.00	   378.476
   2.070      48648.67	   382.029
   2.080      49769.67	   386.405
   2.090      50175.33	   387.977
   2.100      50677.33	   389.913
   2.110      50789.67	   390.345
   2.120      50354.67	   388.670
   2.130      49330.00	   384.695
   2.140      48278.67	   380.573
   2.150      46802.33	   374.709
   2.160      45155.00	   368.056
   2.170      43198.33	   359.993
   2.180      41443.00	   352.603
   2.190      39458.33	   344.057
   2.200      37333.00	   334.663
   2.210      35395.33	   325.862
   2.220      33825.00	   318.551
   2.230      32609.33	   312.775
   2.240      31197.67	   305.930
   2.250      30219.00	   301.093
   2.260      29565.00	   297.817
   2.270      29337.67	   296.670
   2.280      29016.67	   295.042
   2.290      28980.00	   294.856
   2.300      29073.33	   295.330
   2.310      29417.67	   297.074
   2.320      29790.00	   298.948
   2.330      30273.67	   301.365
   2.340      30492.67	   302.453
   2.350      30666.33	   303.313
   2.360      30741.33	   303.684
   2.370      30712.33	   303.541
   2.380      30665.33	   303.308
   2.390      30398.67	   301.987
   2.400      29795.67	   298.977
   2.410      29255.33	   296.253
   2.420      28554.67	   292.684
   2.430      27525.67	   287.362
   2.440      26855.67	   283.843
   2.450      25813.33	   278.280
   2.460      24737.33	   272.419
   2.470      23879.33	   267.653
   2.480      23063.33	   263.040
   2.490      22059.67	   257.253
   2.500      21490.00	   253.909
   2.510      20859.00	   250.154
   2.520      20417.00	   247.489
   2.530      20046.00	   245.231
   2.540      19521.33	   242.000
   2.550      19443.00	   241.514
   2.560      19276.00	   240.475
   2.570      19384.67	   241.151
   2.580      19480.67	   241.748
   2.590      19442.00	   241.508
   2.600      19441.00	   241.502
   2.610      19662.67	   242.874
   2.620      19608.00	   242.537
   2.630      19695.00	   243.074
   2.640      19508.33	   241.919
   2.650      19320.33	   240.751
   2.660      19131.33	   239.570
   2.670      18989.67	   238.682
   2.680      18583.67	   236.116
   2.690      18213.33	   233.752
   2.700      17863.00	   231.493
   2.710      17260.33	   227.554
   2.720      16882.00	   225.047
   2.730      16412.00	   221.892
   2.740      15847.00	   218.039
   2.750      15483.33	   215.523
   2.760      15059.67	   212.554
   2.770      14641.67	   209.583
   2.780      14156.33	   206.080
   2.790      13956.33	   204.619
   2.800      13655.33	   202.401
   2.810      13466.67	   200.998
   2.820      13338.33	   200.037
   2.830      13127.00	   198.446
   2.840      13076.33	   198.063
   2.850      13125.33	   198.434
   2.860      12947.33	   197.084
   2.870      13024.33	   197.669
   2.880      13036.33	   197.760
   2.890      12931.67	   196.964
   2.900      12806.00	   196.005
   2.910      12810.33	   196.038
   2.920      12685.00	   195.077
   2.930      12729.33	   195.418
   2.940      12526.33	   193.853
   2.950      12215.33	   191.431
   2.960      12062.00	   190.226
   2.970      11816.67	   188.282
   2.980      11690.33	   187.273
   2.990      11411.33	   185.024
   3.000      11117.00	   182.623
   3.010      10893.00	   180.773
   3.020      10635.00	   178.620
   3.030      10359.67	   176.292
   3.040      10181.33	   174.768
   3.050       9833.00	   171.753
   3.060       9583.33	   169.558
   3.070       9573.67	   169.473
   3.080       9419.67	   168.104
   3.090       9256.67	   166.643
   3.100       9124.00	   165.445
   3.110       9061.67	   164.879
   3.120       9001.67	   164.332
   3.130       8914.00	   163.530
   3.140       8796.00	   162.444
   3.150       8902.67	   163.426
   3.160       8759.67	   162.108
   3.170       8774.00	   162.241
   3.180       8633.67	   160.938
   3.190       8662.00	   161.202
   3.200       8607.33	   160.692
   3.210       8506.33	   159.747
   3.220       8370.00	   158.461
   3.230       8362.67	   158.392
   3.240       8219.67	   157.032
   3.250       7985.00	   154.774
   3.260       7912.00	   154.065
   3.270       7722.00	   152.204
   3.280       7674.00	   151.730
   3.290       7548.00	   150.479
   3.300       7311.67	   148.105
   3.310       7118.00	   146.130
   3.320       7070.33	   145.640
   3.330       6919.33	   144.076
   3.340       6757.00	   142.376
   3.350       6614.00	   140.862
   3.360       6535.33	   140.021
   3.370       6483.67	   139.467
   3.380       6360.33	   138.134
   3.390       6381.33	   138.362
   3.400       6250.00	   136.931
   3.410       6271.33	   137.164
   3.420       6141.00	   135.731
   3.430       6111.67	   135.407
   3.440       6146.67	   135.794
   3.450       6098.33	   135.259
   3.460       6027.67	   134.473
   3.470       5989.33	   134.045
   3.480       5960.67	   133.724
   3.490       5936.33	   133.450
   3.500       5953.00	   133.638
   3.510       5809.67	   132.019
   3.520       5688.00	   130.629
   3.530       5636.67	   130.038
   3.540       5544.67	   128.973
   3.550       5380.33	   127.047
   3.560       5321.67	   126.353
   3.570       5224.00	   125.188
   3.580       5134.67	   124.113
   3.590       5112.67	   123.847
   3.600       4997.00	   122.438
   3.610       4885.00	   121.058
   3.620       4823.67	   120.295
   3.630       4805.00	   120.062
   3.640       4645.00	   118.047
   3.650       4639.33	   117.975
   3.660       4622.33	   117.758
   3.670       4548.67	   116.816
   3.680       4503.33	   116.233
   3.690       4441.67	   115.434
   3.700       4419.00	   115.139
   3.710       4355.00	   114.302
   3.720       4456.00	   115.620
   3.730       4368.67	   114.481
   3.740       4373.67	   114.547
   3.750       4330.67	   113.982
   3.760       4337.33	   114.070
   3.770       4197.00	   112.210
   3.780       4138.00	   111.418
   3.790       4079.00	   110.621
   3.800       4104.00	   110.959
   3.810       4003.67	   109.595
   3.820       3979.67	   109.266
   3.830       3856.67	   107.564
   3.840       3835.00	   107.261
   3.850       3707.67	   105.466
   3.860       3722.00	   105.669
   3.870       3632.00	   104.384
   3.880       3588.33	   103.755
   3.890       3444.33	   101.651
   3.900       3417.33	   101.252
   3.910       3421.67	   101.316
   3.920       3374.67	   100.618
   3.930       3314.67	    99.720
   3.940       3309.67	    99.644
   3.950       3272.67	    99.086
   3.960       3311.00	    99.664
   3.970       3210.67	    98.143
   3.980       3230.67	    98.448
   3.990       3153.33	    97.263
   4.000       3162.00	    97.396
